# time[s], T9[GK], density[g/cm^3], R[km], Ye

  0.0000E+00  3.8547E+01  2.3918E+10  8.5956E+06  1.0000E-01
  2.9890E-05  3.8476E+01  2.3919E+10  8.5955E+06  1.0090E-01
  5.9780E-05  3.8428E+01  2.3920E+10  8.5954E+06  1.0172E-01
  8.9670E-05  3.8382E+01  2.3920E+10  8.5953E+06  1.0250E-01
  1.1956E-04  3.8344E+01  2.3920E+10  8.5952E+06  1.0312E-01
  1.4945E-04  3.8300E+01  2.3920E+10  8.5950E+06  1.0381E-01
  1.7934E-04  3.8258E+01  2.3918E+10  8.5948E+06  1.0444E-01
  2.0923E-04  3.8218E+01  2.3916E+10  8.5946E+06  1.0503E-01
  2.3912E-04  3.8172E+01  2.3913E+10  8.5943E+06  1.0566E-01
  2.6901E-04  3.8133E+01  2.3909E+10  8.5940E+06  1.0618E-01
  2.9890E-04  3.8094E+01  2.3906E+10  8.5937E+06  1.0668E-01
  3.2879E-04  3.8056E+01  2.3902E+10  8.5933E+06  1.0714E-01
  3.5868E-04  3.8019E+01  2.3898E+10  8.5929E+06  1.0759E-01
  3.8857E-04  3.7982E+01  2.3895E+10  8.5924E+06  1.0800E-01
  4.1846E-04  3.7946E+01  2.3891E+10  8.5919E+06  1.0840E-01
  4.4835E-04  3.7911E+01  2.3887E+10  8.5912E+06  1.0877E-01
  4.7824E-04  3.7876E+01  2.3883E+10  8.5906E+06  1.0913E-01
  5.0813E-04  3.7842E+01  2.3879E+10  8.5898E+06  1.0946E-01
  5.3802E-04  3.7808E+01  2.3874E+10  8.5890E+06  1.0977E-01
  5.6791E-04  3.7779E+01  2.3871E+10  8.5883E+06  1.1002E-01
  5.9780E-04  3.7747E+01  2.3866E+10  8.5873E+06  1.1030E-01
  6.2769E-04  3.7715E+01  2.3862E+10  8.5863E+06  1.1056E-01
  6.5758E-04  3.7683E+01  2.3858E+10  8.5852E+06  1.1080E-01
  6.8747E-04  3.7653E+01  2.3854E+10  8.5840E+06  1.1102E-01
  7.1736E-04  3.7623E+01  2.3852E+10  8.5828E+06  1.1124E-01
  7.4725E-04  3.7595E+01  2.3850E+10  8.5814E+06  1.1144E-01
  7.7714E-04  3.7567E+01  2.3849E+10  8.5800E+06  1.1162E-01
  8.0703E-04  3.7545E+01  2.3849E+10  8.5787E+06  1.1177E-01
  8.3692E-04  3.7520E+01  2.3850E+10  8.5772E+06  1.1193E-01
  8.6681E-04  3.7496E+01  2.3852E+10  8.5756E+06  1.1207E-01
  8.9670E-04  3.7473E+01  2.3855E+10  8.5739E+06  1.1221E-01
  9.2659E-04  3.7451E+01  2.3859E+10  8.5722E+06  1.1233E-01
  9.5648E-04  3.7431E+01  2.3864E+10  8.5705E+06  1.1244E-01
  9.8637E-04  3.7411E+01  2.3870E+10  8.5686E+06  1.1254E-01
  1.0163E-03  3.7393E+01  2.3878E+10  8.5667E+06  1.1264E-01
  1.0462E-03  3.7377E+01  2.3889E+10  8.5648E+06  1.1272E-01
  1.0760E-03  3.7362E+01  2.3902E+10  8.5628E+06  1.1280E-01
  1.1059E-03  3.7349E+01  2.3919E+10  8.5608E+06  1.1286E-01
  1.1358E-03  3.7339E+01  2.3938E+10  8.5587E+06  1.1293E-01
  1.1657E-03  3.7331E+01  2.3959E+10  8.5566E+06  1.1298E-01
  1.1956E-03  3.7324E+01  2.3982E+10  8.5545E+06  1.1302E-01
  1.2255E-03  3.7318E+01  2.4006E+10  8.5523E+06  1.1307E-01
  1.2554E-03  3.7312E+01  2.4030E+10  8.5502E+06  1.1310E-01
  1.2853E-03  3.7305E+01  2.4053E+10  8.5481E+06  1.1313E-01
  1.3152E-03  3.7297E+01  2.4075E+10  8.5460E+06  1.1316E-01
  1.3450E-03  3.7289E+01  2.4095E+10  8.5439E+06  1.1318E-01
  1.3749E-03  3.7279E+01  2.4114E+10  8.5418E+06  1.1319E-01
  1.4048E-03  3.7268E+01  2.4131E+10  8.5398E+06  1.1320E-01
  1.4347E-03  3.7256E+01  2.4145E+10  8.5377E+06  1.1321E-01
  1.4646E-03  3.7242E+01  2.4155E+10  8.5357E+06  1.1321E-01
  1.4945E-03  3.7224E+01  2.4162E+10  8.5336E+06  1.1321E-01
  1.5244E-03  3.7200E+01  2.4163E+10  8.5311E+06  1.1320E-01
  1.5543E-03  3.7175E+01  2.4159E+10  8.5289E+06  1.1319E-01
  1.5842E-03  3.7146E+01  2.4149E+10  8.5267E+06  1.1317E-01
  1.6141E-03  3.7113E+01  2.4132E+10  8.5244E+06  1.1315E-01
  1.6439E-03  3.7081E+01  2.4113E+10  8.5222E+06  1.1313E-01
  1.6738E-03  3.7039E+01  2.4085E+10  8.5197E+06  1.1309E-01
  1.7037E-03  3.6995E+01  2.4051E+10  8.5170E+06  1.1306E-01
  1.7336E-03  3.6947E+01  2.4011E+10  8.5142E+06  1.1302E-01
  1.7635E-03  3.6898E+01  2.3968E+10  8.5114E+06  1.1297E-01
  1.7934E-03  3.6838E+01  2.3912E+10  8.5079E+06  1.1292E-01
  1.8233E-03  3.6782E+01  2.3860E+10  8.5047E+06  1.1287E-01
  1.8532E-03  3.6726E+01  2.3804E+10  8.5013E+06  1.1281E-01
  1.8831E-03  3.6668E+01  2.3745E+10  8.4976E+06  1.1275E-01
  1.9130E-03  3.6609E+01  2.3685E+10  8.4938E+06  1.1269E-01
  1.9429E-03  3.6551E+01  2.3625E+10  8.4898E+06  1.1262E-01
  1.9727E-03  3.6486E+01  2.3558E+10  8.4849E+06  1.1254E-01
  2.0026E-03  3.6432E+01  2.3501E+10  8.4805E+06  1.1247E-01
  2.0325E-03  3.6378E+01  2.3445E+10  8.4758E+06  1.1239E-01
  2.0624E-03  3.6327E+01  2.3390E+10  8.4709E+06  1.1231E-01
  2.0923E-03  3.6278E+01  2.3338E+10  8.4658E+06  1.1224E-01
  2.1222E-03  3.6226E+01  2.3279E+10  8.4598E+06  1.1215E-01
  2.1521E-03  3.6182E+01  2.3230E+10  8.4544E+06  1.1207E-01
  2.1820E-03  3.6139E+01  2.3182E+10  8.4488E+06  1.1200E-01
  2.2119E-03  3.6099E+01  2.3137E+10  8.4429E+06  1.1192E-01
  2.2417E-03  3.6057E+01  2.3089E+10  8.4359E+06  1.1183E-01
  2.2716E-03  3.6024E+01  2.3053E+10  8.4297E+06  1.1175E-01
  2.3015E-03  3.5997E+01  2.3023E+10  8.4232E+06  1.1167E-01
  2.3314E-03  3.5976E+01  2.3001E+10  8.4167E+06  1.1159E-01
  2.3613E-03  3.5961E+01  2.2987E+10  8.4100E+06  1.1151E-01
  2.3912E-03  3.5952E+01  2.2981E+10  8.4024E+06  1.1143E-01
  2.4211E-03  3.5953E+01  2.2989E+10  8.3955E+06  1.1135E-01
  2.4510E-03  3.5964E+01  2.3009E+10  8.3886E+06  1.1128E-01
  2.4809E-03  3.5982E+01  2.3039E+10  8.3816E+06  1.1121E-01
  2.5108E-03  3.6006E+01  2.3077E+10  8.3746E+06  1.1115E-01
  2.5407E-03  3.6035E+01  2.3123E+10  8.3666E+06  1.1107E-01
  2.5705E-03  3.6062E+01  2.3166E+10  8.3598E+06  1.1101E-01
  2.6004E-03  3.6090E+01  2.3211E+10  8.3530E+06  1.1096E-01
  2.6303E-03  3.6120E+01  2.3258E+10  8.3463E+06  1.1090E-01
  2.6602E-03  3.6154E+01  2.3313E+10  8.3387E+06  1.1084E-01
  2.6901E-03  3.6186E+01  2.3365E+10  8.3322E+06  1.1079E-01
  2.7200E-03  3.6221E+01  2.3420E+10  8.3258E+06  1.1075E-01
  2.7499E-03  3.6257E+01  2.3479E+10  8.3196E+06  1.1070E-01
  2.7798E-03  3.6296E+01  2.3542E+10  8.3135E+06  1.1066E-01
  2.8097E-03  3.6343E+01  2.3616E+10  8.3067E+06  1.1062E-01
  2.8396E-03  3.6384E+01  2.3684E+10  8.3009E+06  1.1058E-01
  2.8694E-03  3.6426E+01  2.3752E+10  8.2953E+06  1.1055E-01
  2.8993E-03  3.6474E+01  2.3832E+10  8.2892E+06  1.1052E-01
  2.9292E-03  3.6518E+01  2.3904E+10  8.2839E+06  1.1049E-01
  2.9591E-03  3.6562E+01  2.3979E+10  8.2787E+06  1.1046E-01
  2.9890E-03  3.6600E+01  2.4044E+10  8.2744E+06  1.1044E-01
  3.2788E-03  3.7019E+01  2.4819E+10  8.2377E+06  1.1030E-01
  3.5686E-03  3.7117E+01  2.5210E+10  8.2255E+06  1.1015E-01
  3.8584E-03  3.6818E+01  2.5052E+10  8.2299E+06  1.0974E-01
  4.1482E-03  3.6460E+01  2.4787E+10  8.2446E+06  1.0915E-01
  4.4380E-03  3.6009E+01  2.4363E+10  8.2650E+06  1.0846E-01
  4.7278E-03  3.5526E+01  2.3858E+10  8.2902E+06  1.0763E-01
  5.0176E-03  3.5061E+01  2.3348E+10  8.3183E+06  1.0673E-01
  5.3074E-03  3.4522E+01  2.2706E+10  8.3471E+06  1.0580E-01
  5.5972E-03  3.4138E+01  2.2248E+10  8.3775E+06  1.0492E-01
  5.8870E-03  3.3762E+01  2.1794E+10  8.4114E+06  1.0408E-01
  6.1768E-03  3.3314E+01  2.1234E+10  8.4454E+06  1.0329E-01
  6.4666E-03  3.2916E+01  2.0729E+10  8.4836E+06  1.0254E-01
  6.7564E-03  3.2553E+01  2.0260E+10  8.5219E+06  1.0185E-01
  7.0462E-03  3.2123E+01  1.9701E+10  8.5608E+06  1.0120E-01
  7.3360E-03  3.1777E+01  1.9239E+10  8.6003E+06  1.0059E-01
  7.6258E-03  3.1417E+01  1.8759E+10  8.6406E+06  1.0004E-01
  7.9156E-03  3.1071E+01  1.8294E+10  8.6812E+06  9.9520E-02
  8.2054E-03  3.0824E+01  1.7952E+10  8.7214E+06  9.9048E-02
  8.4952E-03  3.0501E+01  1.7521E+10  8.7595E+06  9.8600E-02
  8.7850E-03  3.0200E+01  1.7128E+10  8.7978E+06  9.8126E-02
  9.0748E-03  2.9841E+01  1.6676E+10  8.8366E+06  9.7656E-02
  9.3646E-03  2.9568E+01  1.6318E+10  8.8753E+06  9.7228E-02
  9.6544E-03  2.9347E+01  1.6018E+10  8.9137E+06  9.6861E-02
  9.9442E-03  2.9112E+01  1.5705E+10  8.9491E+06  9.6542E-02
  1.0234E-02  2.8895E+01  1.5411E+10  8.9830E+06  9.6251E-02
  1.0524E-02  2.8623E+01  1.5061E+10  9.0167E+06  9.5992E-02
  1.0814E-02  2.8308E+01  1.4665E+10  9.0514E+06  9.5741E-02
  1.1103E-02  2.8131E+01  1.4413E+10  9.0851E+06  9.5504E-02
  1.1393E-02  2.7981E+01  1.4200E+10  9.1151E+06  9.5243E-02
  1.1683E-02  2.7784E+01  1.3944E+10  9.1422E+06  9.4972E-02
  1.1973E-02  2.7663E+01  1.3765E+10  9.1682E+06  9.4734E-02
  1.2263E-02  2.7472E+01  1.3518E+10  9.1936E+06  9.4527E-02
  1.2552E-02  2.7239E+01  1.3229E+10  9.2207E+06  9.4332E-02
  1.2842E-02  2.7098E+01  1.3030E+10  9.2487E+06  9.4156E-02
  1.3132E-02  2.6945E+01  1.2822E+10  9.2765E+06  9.4007E-02
  1.3422E-02  2.6816E+01  1.2636E+10  9.3014E+06  9.3874E-02
  1.3712E-02  2.6774E+01  1.2538E+10  9.3254E+06  9.3777E-02
  1.4001E-02  2.6622E+01  1.2337E+10  9.3509E+06  9.3700E-02
  1.4291E-02  2.6460E+01  1.2124E+10  9.3754E+06  9.3628E-02
  1.4581E-02  2.6269E+01  1.1889E+10  9.4016E+06  9.3572E-02
  1.4871E-02  2.6046E+01  1.1623E+10  9.4270E+06  9.3513E-02
  1.5161E-02  2.6034E+01  1.1555E+10  9.4524E+06  9.3438E-02
  1.5450E-02  2.5922E+01  1.1401E+10  9.4807E+06  9.3382E-02
  1.5740E-02  2.5742E+01  1.1185E+10  9.5057E+06  9.3326E-02
  1.6030E-02  2.5698E+01  1.1093E+10  9.5302E+06  9.3284E-02
  1.6320E-02  2.5553E+01  1.0914E+10  9.5558E+06  9.3262E-02
  1.6610E-02  2.5339E+01  1.0671E+10  9.5792E+06  9.3233E-02
  1.6899E-02  2.5264E+01  1.0552E+10  9.6040E+06  9.3211E-02
  1.7189E-02  2.5152E+01  1.0404E+10  9.6312E+06  9.3206E-02
  1.7479E-02  2.4978E+01  1.0201E+10  9.6569E+06  9.3203E-02
  1.7769E-02  2.4900E+01  1.0081E+10  9.6802E+06  9.3207E-02
  1.8059E-02  2.4897E+01  1.0026E+10  9.7049E+06  9.3233E-02
  1.8348E-02  2.4741E+01  9.8447E+09  9.7291E+06  9.3272E-02
  1.8638E-02  2.4584E+01  9.6608E+09  9.7516E+06  9.3307E-02
  1.8928E-02  2.4542E+01  9.5747E+09  9.7757E+06  9.3357E-02
  1.9218E-02  2.4392E+01  9.4019E+09  9.7993E+06  9.3395E-02
  1.9508E-02  2.4321E+01  9.2955E+09  9.8234E+06  9.3431E-02
  1.9797E-02  2.4244E+01  9.1857E+09  9.8478E+06  9.3476E-02
  2.0087E-02  2.4092E+01  9.0155E+09  9.8716E+06  9.3523E-02
  2.0377E-02  2.4017E+01  8.9089E+09  9.8941E+06  9.3573E-02
  2.0667E-02  2.3962E+01  8.8192E+09  9.9162E+06  9.3633E-02
  2.0957E-02  2.3888E+01  8.7148E+09  9.9378E+06  9.3702E-02
  2.1246E-02  2.3800E+01  8.6016E+09  9.9601E+06  9.3777E-02
  2.1536E-02  2.3710E+01  8.4868E+09  9.9823E+06  9.3855E-02
  2.1826E-02  2.3607E+01  8.3631E+09  1.0005E+07  9.3938E-02
  2.2116E-02  2.3511E+01  8.2457E+09  1.0029E+07  9.4025E-02
  2.2406E-02  2.3451E+01  8.1564E+09  1.0052E+07  9.4117E-02
  2.2695E-02  2.3359E+01  8.0440E+09  1.0075E+07  9.4216E-02
  2.2985E-02  2.3261E+01  7.9274E+09  1.0098E+07  9.4318E-02
  2.3275E-02  2.3238E+01  7.8685E+09  1.0120E+07  9.4425E-02
  2.3565E-02  2.3173E+01  7.7786E+09  1.0142E+07  9.4541E-02
  2.3855E-02  2.3068E+01  7.6578E+09  1.0164E+07  9.4665E-02
  2.4144E-02  2.3008E+01  7.5708E+09  1.0188E+07  9.4793E-02
  2.4434E-02  2.2940E+01  7.4796E+09  1.0211E+07  9.4925E-02
  2.4724E-02  2.2840E+01  7.3659E+09  1.0234E+07  9.5059E-02
  2.5014E-02  2.2752E+01  7.2621E+09  1.0258E+07  9.5194E-02
  2.5304E-02  2.2690E+01  7.1779E+09  1.0281E+07  9.5332E-02
  2.5593E-02  2.2625E+01  7.0921E+09  1.0303E+07  9.5472E-02
  2.5883E-02  2.2556E+01  7.0044E+09  1.0327E+07  9.5617E-02
  2.6173E-02  2.2487E+01  6.9180E+09  1.0350E+07  9.5763E-02
  2.6463E-02  2.2418E+01  6.8327E+09  1.0373E+07  9.5913E-02
  2.6753E-02  2.2347E+01  6.7467E+09  1.0396E+07  9.6066E-02
  2.7042E-02  2.2275E+01  6.6604E+09  1.0419E+07  9.6221E-02
  2.7332E-02  2.2196E+01  6.5708E+09  1.0443E+07  9.6379E-02
  2.7622E-02  2.2134E+01  6.4926E+09  1.0466E+07  9.6539E-02
  2.7912E-02  2.2065E+01  6.4115E+09  1.0490E+07  9.6703E-02
  2.8202E-02  2.1999E+01  6.3319E+09  1.0513E+07  9.6866E-02
  2.8491E-02  2.1954E+01  6.2681E+09  1.0536E+07  9.7023E-02
  2.8781E-02  2.1895E+01  6.1944E+09  1.0559E+07  9.7186E-02
  2.9071E-02  2.1823E+01  6.1135E+09  1.0582E+07  9.7350E-02
  3.1969E-02  2.1266E+01  5.4390E+09  1.0813E+07  9.9144E-02
  3.4867E-02  2.0723E+01  4.8422E+09  1.1043E+07  1.0107E-01
  3.7765E-02  2.0225E+01  4.3309E+09  1.1277E+07  1.0306E-01
  4.0663E-02  1.9811E+01  3.8858E+09  1.1509E+07  1.0525E-01
  4.3561E-02  1.9433E+01  3.5035E+09  1.1737E+07  1.0750E-01
  4.6459E-02  1.9059E+01  3.1718E+09  1.1964E+07  1.0968E-01
  4.9357E-02  1.8702E+01  2.8710E+09  1.2194E+07  1.1190E-01
  5.2255E-02  1.8397E+01  2.6057E+09  1.2423E+07  1.1418E-01
  5.5153E-02  1.8101E+01  2.3729E+09  1.2649E+07  1.1640E-01
  5.8051E-02  1.7798E+01  2.1636E+09  1.2875E+07  1.1853E-01
  6.0949E-02  1.7517E+01  1.9768E+09  1.3104E+07  1.2067E-01
  6.3847E-02  1.7275E+01  1.8116E+09  1.3331E+07  1.2283E-01
  6.6745E-02  1.7037E+01  1.6634E+09  1.3556E+07  1.2495E-01
  6.9643E-02  1.6793E+01  1.5296E+09  1.3781E+07  1.2699E-01
  7.2541E-02  1.6556E+01  1.4093E+09  1.4009E+07  1.2900E-01
  7.5439E-02  1.6350E+01  1.2995E+09  1.4237E+07  1.3107E-01
  7.8337E-02  1.6153E+01  1.2016E+09  1.4462E+07  1.3307E-01
  8.1235E-02  1.5955E+01  1.1130E+09  1.4686E+07  1.3503E-01
  8.4133E-02  1.5756E+01  1.0317E+09  1.4911E+07  1.3693E-01
  8.7031E-02  1.5568E+01  9.5747E+08  1.5139E+07  1.3880E-01
  8.9929E-02  1.5396E+01  8.8980E+08  1.5367E+07  1.4066E-01
  9.2827E-02  1.5226E+01  8.2755E+08  1.5592E+07  1.4245E-01
  9.5725E-02  1.5049E+01  7.7023E+08  1.5817E+07  1.4423E-01
  9.8623E-02  1.4887E+01  7.1982E+08  1.6044E+07  1.4593E-01
  1.0152E-01  1.4725E+01  6.7173E+08  1.6266E+07  1.4762E-01
  1.0442E-01  1.4573E+01  6.2743E+08  1.6488E+07  1.4934E-01
  1.0732E-01  1.4430E+01  5.8799E+08  1.6709E+07  1.5096E-01
  1.1021E-01  1.4282E+01  5.5064E+08  1.6938E+07  1.5259E-01
  1.1311E-01  1.4133E+01  5.1552E+08  1.7167E+07  1.5420E-01
  1.1601E-01  1.3980E+01  4.8220E+08  1.7393E+07  1.5572E-01
  1.1891E-01  1.3857E+01  4.5411E+08  1.7607E+07  1.5723E-01
  1.2181E-01  1.3734E+01  4.2799E+08  1.7807E+07  1.5876E-01
  1.2470E-01  1.3630E+01  4.0608E+08  1.8000E+07  1.6023E-01
  1.2760E-01  1.3521E+01  3.8464E+08  1.8217E+07  1.6156E-01
  1.3050E-01  1.3389E+01  3.6152E+08  1.8448E+07  1.6294E-01
  1.3340E-01  1.3247E+01  3.3868E+08  1.8705E+07  1.6430E-01
  1.3630E-01  1.3110E+01  3.1784E+08  1.8964E+07  1.6555E-01
  1.3920E-01  1.2981E+01  2.9905E+08  1.9206E+07  1.6682E-01
  1.4209E-01  1.2863E+01  2.8233E+08  1.9440E+07  1.6805E-01
  1.4499E-01  1.2750E+01  2.6723E+08  1.9675E+07  1.6926E-01
  1.4789E-01  1.2630E+01  2.5224E+08  1.9943E+07  1.7044E-01
  1.5079E-01  1.2479E+01  2.3550E+08  2.0204E+07  1.7157E-01
  1.5368E-01  1.2367E+01  2.2294E+08  2.0437E+07  1.7266E-01
  1.5658E-01  1.2289E+01  2.1364E+08  2.0666E+07  1.7373E-01
  1.5948E-01  1.2174E+01  2.0204E+08  2.0897E+07  1.7477E-01
  1.6238E-01  1.2078E+01  1.9237E+08  2.1118E+07  1.7580E-01
  1.6528E-01  1.1990E+01  1.8372E+08  2.1360E+07  1.7682E-01
  1.6817E-01  1.1877E+01  1.7389E+08  2.1625E+07  1.7780E-01
  1.7107E-01  1.1761E+01  1.6449E+08  2.1888E+07  1.7871E-01
  1.7397E-01  1.1658E+01  1.5629E+08  2.2180E+07  1.7962E-01
  1.7687E-01  1.1508E+01  1.4605E+08  2.2490E+07  1.8049E-01
  1.7977E-01  1.1388E+01  1.3806E+08  2.2818E+07  1.8130E-01
  1.8266E-01  1.1267E+01  1.3044E+08  2.3141E+07  1.8206E-01
  1.8556E-01  1.1136E+01  1.2293E+08  2.3486E+07  1.8284E-01
  1.8846E-01  1.0998E+01  1.1547E+08  2.3813E+07  1.8362E-01
  1.9136E-01  1.0903E+01  1.1031E+08  2.4126E+07  1.8431E-01
  1.9426E-01  1.0751E+01  1.0352E+08  2.4457E+07  1.8471E-01
  1.9715E-01  1.0642E+01  9.8713E+07  2.4749E+07  1.8505E-01
  2.0005E-01  1.0528E+01  9.3972E+07  2.5041E+07  1.8538E-01
  2.0295E-01  1.0431E+01  9.0095E+07  2.5321E+07  1.8558E-01
  2.0585E-01  1.0312E+01  8.5659E+07  2.5583E+07  1.8589E-01
  2.0875E-01  1.0227E+01  8.2229E+07  2.5841E+07  1.8641E-01
  2.1164E-01  1.0147E+01  7.9778E+07  2.6069E+07  1.8634E-01
  2.1454E-01  1.0073E+01  7.7454E+07  2.6260E+07  1.8614E-01
  2.1744E-01  1.0001E+01  7.5215E+07  2.6411E+07  1.8591E-01
  2.2034E-01  9.9527E+00  7.3452E+07  2.6544E+07  1.8597E-01
  2.2324E-01  9.9106E+00  7.1707E+07  2.6683E+07  1.8638E-01
  2.2614E-01  9.8807E+00  7.0244E+07  2.6839E+07  1.8707E-01
  2.2903E-01  9.7954E+00  6.7595E+07  2.7006E+07  1.8750E-01
  2.3193E-01  9.7489E+00  6.6185E+07  2.7184E+07  1.8727E-01
  2.3483E-01  9.7037E+00  6.4723E+07  2.7361E+07  1.8724E-01
  2.3773E-01  9.6606E+00  6.2834E+07  2.7516E+07  1.8820E-01
  2.4063E-01  9.5909E+00  6.0694E+07  2.7654E+07  1.8871E-01
  2.4352E-01  9.5724E+00  5.9563E+07  2.7761E+07  1.8939E-01
  2.4642E-01  9.5221E+00  5.8283E+07  2.7815E+07  1.8868E-01
  2.4932E-01  9.5023E+00  5.7541E+07  2.7811E+07  1.8879E-01
  2.5222E-01  9.5131E+00  5.7056E+07  2.7766E+07  1.8961E-01
  2.5511E-01  9.4852E+00  5.7069E+07  2.7695E+07  1.8646E-01
  2.5801E-01  9.4214E+00  5.7044E+07  2.7582E+07  1.8238E-01
  2.6091E-01  9.4184E+00  5.8115E+07  2.7438E+07  1.7854E-01
  2.6381E-01  9.4281E+00  5.9258E+07  2.7264E+07  1.7674E-01
  2.6671E-01  9.4667E+00  6.0107E+07  2.7096E+07  1.7670E-01
  2.6960E-01  9.4909E+00  6.0689E+07  2.6930E+07  1.7711E-01
  2.7250E-01  9.4891E+00  6.1506E+07  2.6763E+07  1.7345E-01
  2.7540E-01  9.5163E+00  6.1912E+07  2.6562E+07  1.7005E-01
  2.7830E-01  9.5904E+00  6.0960E+07  2.6341E+07  1.7164E-01
  2.8120E-01  9.6485E+00  6.0311E+07  2.6145E+07  1.7428E-01
  2.8409E-01  9.6977E+00  6.0559E+07  2.5958E+07  1.7350E-01
  2.8699E-01  9.7573E+00  6.0360E+07  2.5692E+07  1.7606E-01
  2.8989E-01  9.8203E+00  6.0362E+07  2.5391E+07  1.7955E-01
  3.1887E-01  9.3444E+00  3.9953E+07  2.2426E+07  1.9613E-01
  3.4785E-01  1.0590E+01  4.9290E+07  1.9683E+07  2.1362E-01
  3.7683E-01  7.6713E+00  1.4918E+07  2.8884E+07  2.1890E-01
  4.0581E-01  6.2979E+00  8.3795E+06  3.8136E+07  2.1430E-01
  4.3479E-01  5.5813E+00  6.2130E+06  4.4083E+07  2.0596E-01
  4.6377E-01  4.7804E+00  4.2861E+06  5.2550E+07  1.9767E-01
  4.9275E-01  3.8546E+00  2.0921E+06  6.3110E+07  1.9868E-01
  5.2173E-01  3.3309E+00  1.3039E+06  7.3663E+07  1.9887E-01
  5.5071E-01  2.8810E+00  8.3317E+05  8.4729E+07  1.9614E-01
  5.7969E-01  2.6003E+00  5.8730E+05  9.3213E+07  1.9391E-01
  6.0867E-01  2.3704E+00  4.3897E+05  1.0002E+08  1.9176E-01
  6.3765E-01  2.2744E+00  3.8844E+05  1.0242E+08  1.9021E-01
  6.6663E-01  2.3177E+00  4.2323E+05  1.0129E+08  1.8929E-01
  6.9561E-01  2.3915E+00  5.0655E+05  9.8647E+07  1.8664E-01
  7.2459E-01  2.3650E+00  5.1183E+05  9.8426E+07  1.8126E-01
  7.5357E-01  2.1840E+00  4.2545E+05  1.0346E+08  1.7614E-01
  7.8255E-01  1.9825E+00  3.1092E+05  1.1355E+08  1.7513E-01
  8.1153E-01  1.8197E+00  2.2994E+05  1.2428E+08  1.7503E-01
  8.4051E-01  1.6812E+00  1.7624E+05  1.3379E+08  1.7472E-01
  8.6949E-01  1.5577E+00  1.3535E+05  1.4075E+08  1.7457E-01
  8.9847E-01  1.5235E+00  1.2533E+05  1.4486E+08  1.7421E-01
  9.2745E-01  1.4908E+00  1.1616E+05  1.4640E+08  1.7418E-01
  9.5643E-01  1.5253E+00  1.2476E+05  1.4625E+08  1.7394E-01
  9.8541E-01  1.5455E+00  1.2930E+05  1.4500E+08  1.7393E-01
  1.0144E+00  1.6102E+00  1.4771E+05  1.4326E+08  1.7362E-01
  1.0434E+00  1.6971E+00  1.7493E+05  1.4189E+08  1.7331E-01
  1.0724E+00  1.7215E+00  1.8273E+05  1.3987E+08  1.7254E-01
  1.1013E+00  1.7412E+00  1.8807E+05  1.3892E+08  1.7342E-01
  1.1303E+00  1.7542E+00  1.9232E+05  1.3934E+08  1.7299E-01
  1.1593E+00  1.7252E+00  1.8079E+05  1.3944E+08  1.7382E-01
  1.1883E+00  1.7270E+00  1.7922E+05  1.3888E+08  1.7473E-01
  1.2173E+00  1.7297E+00  1.7681E+05  1.3713E+08  1.7503E-01
  1.2462E+00  1.7534E+00  1.8267E+05  1.3433E+08  1.7570E-01
  1.2752E+00  1.8150E+00  2.0461E+05  1.3019E+08  1.7622E-01
  1.3042E+00  1.8854E+00  2.3007E+05  1.2513E+08  1.7677E-01
  1.3332E+00  1.9649E+00  2.6240E+05  1.1944E+08  1.7712E-01
  1.3622E+00  2.0085E+00  2.7837E+05  1.1439E+08  1.7754E-01
  1.3911E+00  2.0699E+00  3.0244E+05  1.1179E+08  1.7753E-01
  1.4201E+00  2.1006E+00  3.0820E+05  1.1120E+08  1.7777E-01
  1.4491E+00  2.0984E+00  3.0083E+05  1.1301E+08  1.7795E-01
  1.4781E+00  2.0498E+00  2.6419E+05  1.1712E+08  1.7776E-01
  1.5071E+00  1.9775E+00  2.3332E+05  1.2224E+08  1.7740E-01
  1.5360E+00  1.9091E+00  2.0843E+05  1.2833E+08  1.7700E-01
  1.5650E+00  1.8198E+00  1.7589E+05  1.3487E+08  1.7689E-01
  1.5940E+00  1.7315E+00  1.4891E+05  1.4138E+08  1.7661E-01
  1.6230E+00  1.6693E+00  1.3066E+05  1.4746E+08  1.7640E-01
